TITLE	3C 585 2
DATA TYPE	FLUORESCENCE SPECTRUM
ORIGIN	JASCO
OWNER	
DATE	24/10/26
TIME	16:45:28
SPECTROMETER/DATA SYSTEM	
LOCALE	1033
RESOLUTION	
DELTAX	1
XUNITS	NANOMETERS
YUNITS	INTENSITY
FIRSTX	  595.0000
LASTX	  700.0000
NPOINTS	     106
FIRSTY	     0.96697
MAXY	     1.90777
MINY	     0.08899
XYDATA
595.0000	0.966973
596.0000	1.06997
597.0000	1.17711
598.0000	1.25712
599.0000	1.35339
600.0000	1.42971
601.0000	1.51852
602.0000	1.57604
603.0000	1.65249
604.0000	1.74334
605.0000	1.78088
606.0000	1.81566
607.0000	1.86842
608.0000	1.87611
609.0000	1.89069
610.0000	1.90777
611.0000	1.90578
612.0000	1.89963
613.0000	1.87852
614.0000	1.81097
615.0000	1.77544
616.0000	1.73241
617.0000	1.68205
618.0000	1.582
619.0000	1.53027
620.0000	1.47959
621.0000	1.43424
622.0000	1.36912
623.0000	1.31455
624.0000	1.24905
625.0000	1.226
626.0000	1.15841
627.0000	1.0999
628.0000	1.07668
629.0000	1.01961
630.0000	0.927098
631.0000	0.898223
632.0000	0.876373
633.0000	0.840154
634.0000	0.780561
635.0000	0.746922
636.0000	0.728924
637.0000	0.69426
638.0000	0.657176
639.0000	0.624088
640.0000	0.603079
641.0000	0.571613
642.0000	0.55864
643.0000	0.535176
644.0000	0.528886
645.0000	0.508429
646.0000	0.497255
647.0000	0.485653
648.0000	0.472971
649.0000	0.45161
650.0000	0.448658
651.0000	0.440872
652.0000	0.437348
653.0000	0.421431
654.0000	0.397382
655.0000	0.394252
656.0000	0.377315
657.0000	0.37961
658.0000	0.366074
659.0000	0.351453
660.0000	0.358214
661.0000	0.335959
662.0000	0.322196
663.0000	0.321814
664.0000	0.318186
665.0000	0.309786
666.0000	0.297884
667.0000	0.296787
668.0000	0.286692
669.0000	0.275857
670.0000	0.264729
671.0000	0.259201
672.0000	0.244748
673.0000	0.242984
674.0000	0.237591
675.0000	0.227378
676.0000	0.2001
677.0000	0.192808
678.0000	0.191033
679.0000	0.194064
680.0000	0.182357
681.0000	0.182974
682.0000	0.178126
683.0000	0.158629
684.0000	0.158034
685.0000	0.148616
686.0000	0.137404
687.0000	0.136673
688.0000	0.131168
689.0000	0.130462
690.0000	0.125185
691.0000	0.115481
692.0000	0.117369
693.0000	0.109965
694.0000	0.105869
695.0000	0.0942168
696.0000	0.094628
697.0000	0.0955995
698.0000	0.0925015
699.0000	0.0889943
700.0000	0.0919141

##### Extended Information
[Comments]
Sample name	3C 585 2
Comment	3C 585 2
Username
Division
Organization	HCU-BIOTECHNOLOGY

[Detailed Information]
Creation date	10/26/2024 4:45 PM

Data array type	Linear data array
Horizontal axis	Wavelength [nm]
Vertical axis	Int.
Start	595 nm
End	700 nm
Data interval	1 nm
Data points	106     

[Measurement Information]
Model name	FP-8550
Serial No.	C022962067
  Ex filter holder	None
  Em filter holder	None

Accessory	ETC-115
Accessory S/N	B009062083
  Temperature	25.01 C
  Control sensor	Holder
  Monitor sensor	Holder
  Start mode	Keep target temperature +/-0.10 C for 5 seconds

Accessory	FDP-837
Accessory S/N	A022661537
  Polarizer	Ex -----, Em -----

Measurement date	10/26/2024 4:45 PM

Mode	Emission
Ex bandwidth	5 nm
Em bandwidth	5 nm
Response	0.5 sec
Sensitivity	Medium
Measurement range	595 - 700 nm
Data interval	1 nm
Ex wavelength	585.0 nm
Scan speed	200 nm/min
No. of accumulations	1
Auto gain	Off
Shutter control	Open only for measurement
Light source	Xe lamp
Filter	Continue scan for exchanging filter
Auto Zero control	On
Blank correction	Off

