TITLE	3C 585 1
DATA TYPE	FLUORESCENCE SPECTRUM
ORIGIN	JASCO
OWNER	
DATE	24/10/26
TIME	16:44:23
SPECTROMETER/DATA SYSTEM	
LOCALE	1033
RESOLUTION	
DELTAX	1
XUNITS	NANOMETERS
YUNITS	INTENSITY
FIRSTX	  595.0000
LASTX	  700.0000
NPOINTS	     106
FIRSTY	     0.98285
MAXY	     1.90960
MINY	     0.08517
XYDATA
595.0000	0.982846
596.0000	1.07879
597.0000	1.181
598.0000	1.26197
599.0000	1.35949
600.0000	1.44895
601.0000	1.55697
602.0000	1.62985
603.0000	1.72564
604.0000	1.77243
605.0000	1.79823
606.0000	1.82968
607.0000	1.89096
608.0000	1.90217
609.0000	1.9096
610.0000	1.86757
611.0000	1.87673
612.0000	1.86843
613.0000	1.87054
614.0000	1.82857
615.0000	1.78366
616.0000	1.74437
617.0000	1.69017
618.0000	1.61402
619.0000	1.54228
620.0000	1.48016
621.0000	1.45026
622.0000	1.39288
623.0000	1.30665
624.0000	1.25419
625.0000	1.21967
626.0000	1.16608
627.0000	1.11192
628.0000	1.04884
629.0000	1.01541
630.0000	0.958377
631.0000	0.901345
632.0000	0.874102
633.0000	0.836021
634.0000	0.788744
635.0000	0.771846
636.0000	0.738858
637.0000	0.707928
638.0000	0.650767
639.0000	0.621005
640.0000	0.605277
641.0000	0.590033
642.0000	0.553725
643.0000	0.544138
644.0000	0.537678
645.0000	0.516691
646.0000	0.495718
647.0000	0.485317
648.0000	0.474642
649.0000	0.452982
650.0000	0.437053
651.0000	0.443883
652.0000	0.427264
653.0000	0.4126
654.0000	0.409671
655.0000	0.399733
656.0000	0.386496
657.0000	0.375942
658.0000	0.381227
659.0000	0.367117
660.0000	0.36161
661.0000	0.353906
662.0000	0.325162
663.0000	0.319151
664.0000	0.313322
665.0000	0.319072
666.0000	0.313182
667.0000	0.292177
668.0000	0.289891
669.0000	0.274406
670.0000	0.255583
671.0000	0.25747
672.0000	0.242777
673.0000	0.2337
674.0000	0.233011
675.0000	0.214854
676.0000	0.209199
677.0000	0.205625
678.0000	0.194846
679.0000	0.185127
680.0000	0.184341
681.0000	0.18715
682.0000	0.175262
683.0000	0.171053
684.0000	0.164781
685.0000	0.154787
686.0000	0.146614
687.0000	0.144214
688.0000	0.131087
689.0000	0.119653
690.0000	0.119008
691.0000	0.118844
692.0000	0.108933
693.0000	0.111613
694.0000	0.111549
695.0000	0.0961635
696.0000	0.0962945
697.0000	0.0953404
698.0000	0.0923766
699.0000	0.0911307
700.0000	0.0851735

##### Extended Information
[Comments]
Sample name	3C 585 1
Comment	3C 585 1
Username
Division
Organization	HCU-BIOTECHNOLOGY

[Detailed Information]
Creation date	10/26/2024 4:44 PM

Data array type	Linear data array
Horizontal axis	Wavelength [nm]
Vertical axis	Int.
Start	595 nm
End	700 nm
Data interval	1 nm
Data points	106     

[Measurement Information]
Model name	FP-8550
Serial No.	C022962067
  Ex filter holder	None
  Em filter holder	None

Accessory	ETC-115
Accessory S/N	B009062083
  Temperature	25.01 C
  Control sensor	Holder
  Monitor sensor	Holder
  Start mode	Keep target temperature +/-0.10 C for 5 seconds

Accessory	FDP-837
Accessory S/N	A022661537
  Polarizer	Ex -----, Em -----

Measurement date	10/26/2024 4:44 PM

Mode	Emission
Ex bandwidth	5 nm
Em bandwidth	5 nm
Response	0.5 sec
Sensitivity	Medium
Measurement range	595 - 700 nm
Data interval	1 nm
Ex wavelength	585.0 nm
Scan speed	200 nm/min
No. of accumulations	1
Auto gain	Off
Shutter control	Open only for measurement
Light source	Xe lamp
Filter	Continue scan for exchanging filter
Auto Zero control	On
Blank correction	Off

