TITLE	3C 585 3
DATA TYPE	FLUORESCENCE SPECTRUM
ORIGIN	JASCO
OWNER	
DATE	24/10/26
TIME	16:46:24
SPECTROMETER/DATA SYSTEM	
LOCALE	1033
RESOLUTION	
DELTAX	1
XUNITS	NANOMETERS
YUNITS	INTENSITY
FIRSTX	  595.0000
LASTX	  700.0000
NPOINTS	     106
FIRSTY	     0.96551
MAXY	     1.89219
MINY	     0.08043
XYDATA
595.0000	0.965513
596.0000	1.06298
597.0000	1.12822
598.0000	1.23596
599.0000	1.34156
600.0000	1.42327
601.0000	1.50788
602.0000	1.58526
603.0000	1.648
604.0000	1.71166
605.0000	1.76516
606.0000	1.80202
607.0000	1.8196
608.0000	1.86258
609.0000	1.89219
610.0000	1.88826
611.0000	1.87772
612.0000	1.85114
613.0000	1.81623
614.0000	1.77738
615.0000	1.77457
616.0000	1.72888
617.0000	1.63832
618.0000	1.58076
619.0000	1.55595
620.0000	1.52813
621.0000	1.46412
622.0000	1.40059
623.0000	1.33083
624.0000	1.23869
625.0000	1.20388
626.0000	1.16101
627.0000	1.09674
628.0000	1.04167
629.0000	0.984807
630.0000	0.954172
631.0000	0.893868
632.0000	0.840974
633.0000	0.816102
634.0000	0.800242
635.0000	0.765641
636.0000	0.709237
637.0000	0.684188
638.0000	0.647262
639.0000	0.614043
640.0000	0.599113
641.0000	0.572497
642.0000	0.554899
643.0000	0.55031
644.0000	0.525655
645.0000	0.505142
646.0000	0.492971
647.0000	0.466304
648.0000	0.46419
649.0000	0.467086
650.0000	0.449095
651.0000	0.426535
652.0000	0.420115
653.0000	0.431522
654.0000	0.411791
655.0000	0.392114
656.0000	0.385384
657.0000	0.383588
658.0000	0.359431
659.0000	0.35462
660.0000	0.360665
661.0000	0.339035
662.0000	0.333443
663.0000	0.319976
664.0000	0.312242
665.0000	0.305528
666.0000	0.291579
667.0000	0.279974
668.0000	0.270199
669.0000	0.276064
670.0000	0.269707
671.0000	0.259235
672.0000	0.250082
673.0000	0.234652
674.0000	0.236454
675.0000	0.22528
676.0000	0.205638
677.0000	0.199687
678.0000	0.201506
679.0000	0.193346
680.0000	0.186101
681.0000	0.167198
682.0000	0.163391
683.0000	0.162856
684.0000	0.148059
685.0000	0.143607
686.0000	0.14007
687.0000	0.13896
688.0000	0.13476
689.0000	0.119716
690.0000	0.115629
691.0000	0.114417
692.0000	0.115273
693.0000	0.104313
694.0000	0.0982078
695.0000	0.0993307
696.0000	0.0924901
697.0000	0.0808297
698.0000	0.087118
699.0000	0.0804252
700.0000	0.0842991

##### Extended Information
[Comments]
Sample name	3C 585 3
Comment	3C 585 3
Username
Division
Organization	HCU-BIOTECHNOLOGY

[Detailed Information]
Creation date	10/26/2024 4:46 PM

Data array type	Linear data array
Horizontal axis	Wavelength [nm]
Vertical axis	Int.
Start	595 nm
End	700 nm
Data interval	1 nm
Data points	106     

[Measurement Information]
Model name	FP-8550
Serial No.	C022962067
  Ex filter holder	None
  Em filter holder	None

Accessory	ETC-115
Accessory S/N	B009062083
  Temperature	24.96 C
  Control sensor	Holder
  Monitor sensor	Holder
  Start mode	Keep target temperature +/-0.10 C for 5 seconds

Accessory	FDP-837
Accessory S/N	A022661537
  Polarizer	Ex -----, Em -----

Measurement date	10/26/2024 4:46 PM

Mode	Emission
Ex bandwidth	5 nm
Em bandwidth	5 nm
Response	0.5 sec
Sensitivity	Medium
Measurement range	595 - 700 nm
Data interval	1 nm
Ex wavelength	585.0 nm
Scan speed	200 nm/min
No. of accumulations	1
Auto gain	Off
Shutter control	Open only for measurement
Light source	Xe lamp
Filter	Continue scan for exchanging filter
Auto Zero control	On
Blank correction	Off

