TITLE	4C 585 2
DATA TYPE	FLUORESCENCE SPECTRUM
ORIGIN	JASCO
OWNER	
DATE	24/10/26
TIME	16:56:48
SPECTROMETER/DATA SYSTEM	
LOCALE	1033
RESOLUTION	
DELTAX	1
XUNITS	NANOMETERS
YUNITS	INTENSITY
FIRSTX	  595.0000
LASTX	  700.0000
NPOINTS	     106
FIRSTY	     0.97135
MAXY	     1.88172
MINY	     0.07489
XYDATA
595.0000	0.971354
596.0000	1.06494
597.0000	1.14095
598.0000	1.2396
599.0000	1.33853
600.0000	1.4249
601.0000	1.48559
602.0000	1.56256
603.0000	1.65068
604.0000	1.72093
605.0000	1.75959
606.0000	1.79887
607.0000	1.82699
608.0000	1.83867
609.0000	1.87174
610.0000	1.87616
611.0000	1.88172
612.0000	1.83743
613.0000	1.82825
614.0000	1.79309
615.0000	1.7389
616.0000	1.73236
617.0000	1.67966
618.0000	1.59365
619.0000	1.544
620.0000	1.49752
621.0000	1.44105
622.0000	1.37128
623.0000	1.30315
624.0000	1.26272
625.0000	1.21446
626.0000	1.16631
627.0000	1.09212
628.0000	1.05672
629.0000	1.02009
630.0000	0.968868
631.0000	0.92126
632.0000	0.860892
633.0000	0.82594
634.0000	0.786597
635.0000	0.755202
636.0000	0.724087
637.0000	0.699103
638.0000	0.663184
639.0000	0.618193
640.0000	0.592601
641.0000	0.582656
642.0000	0.567603
643.0000	0.549941
644.0000	0.537818
645.0000	0.517373
646.0000	0.486607
647.0000	0.463613
648.0000	0.466772
649.0000	0.447896
650.0000	0.439637
651.0000	0.422794
652.0000	0.408646
653.0000	0.411595
654.0000	0.409938
655.0000	0.397097
656.0000	0.389754
657.0000	0.375906
658.0000	0.372607
659.0000	0.35966
660.0000	0.333394
661.0000	0.333201
662.0000	0.332453
663.0000	0.319806
664.0000	0.315122
665.0000	0.310581
666.0000	0.290411
667.0000	0.29045
668.0000	0.271094
669.0000	0.269881
670.0000	0.253858
671.0000	0.244252
672.0000	0.245536
673.0000	0.237457
674.0000	0.22877
675.0000	0.221922
676.0000	0.207201
677.0000	0.196358
678.0000	0.194202
679.0000	0.192738
680.0000	0.191097
681.0000	0.178128
682.0000	0.160407
683.0000	0.159588
684.0000	0.164246
685.0000	0.145176
686.0000	0.146791
687.0000	0.134457
688.0000	0.129198
689.0000	0.132705
690.0000	0.118652
691.0000	0.11117
692.0000	0.108113
693.0000	0.108573
694.0000	0.10395
695.0000	0.096668
696.0000	0.088358
697.0000	0.0934123
698.0000	0.0878131
699.0000	0.0852167
700.0000	0.0748903

##### Extended Information
[Comments]
Sample name	4C 585 2
Comment	4C 585 2
Username
Division
Organization	HCU-BIOTECHNOLOGY

[Detailed Information]
Creation date	10/26/2024 4:56 PM

Data array type	Linear data array
Horizontal axis	Wavelength [nm]
Vertical axis	Int.
Start	595 nm
End	700 nm
Data interval	1 nm
Data points	106     

[Measurement Information]
Model name	FP-8550
Serial No.	C022962067
  Ex filter holder	None
  Em filter holder	None

Accessory	ETC-115
Accessory S/N	B009062083
  Temperature	25.02 C
  Control sensor	Holder
  Monitor sensor	Holder
  Start mode	Keep target temperature +/-0.10 C for 5 seconds

Accessory	FDP-837
Accessory S/N	A022661537
  Polarizer	Ex -----, Em -----

Measurement date	10/26/2024 4:56 PM

Mode	Emission
Ex bandwidth	5 nm
Em bandwidth	5 nm
Response	0.5 sec
Sensitivity	Medium
Measurement range	595 - 700 nm
Data interval	1 nm
Ex wavelength	585.0 nm
Scan speed	200 nm/min
No. of accumulations	1
Auto gain	Off
Shutter control	Open only for measurement
Light source	Xe lamp
Filter	Continue scan for exchanging filter
Auto Zero control	On
Blank correction	Off

