TITLE	4C 585 3
DATA TYPE	FLUORESCENCE SPECTRUM
ORIGIN	JASCO
OWNER	
DATE	24/10/26
TIME	16:57:49
SPECTROMETER/DATA SYSTEM	
LOCALE	1033
RESOLUTION	
DELTAX	1
XUNITS	NANOMETERS
YUNITS	INTENSITY
FIRSTX	  595.0000
LASTX	  700.0000
NPOINTS	     106
FIRSTY	     0.97154
MAXY	     1.90491
MINY	     0.07382
XYDATA
595.0000	0.971537
596.0000	1.05764
597.0000	1.16437
598.0000	1.2463
599.0000	1.30644
600.0000	1.39517
601.0000	1.47935
602.0000	1.58315
603.0000	1.64673
604.0000	1.68528
605.0000	1.77986
606.0000	1.79955
607.0000	1.84115
608.0000	1.87567
609.0000	1.90491
610.0000	1.90232
611.0000	1.8742
612.0000	1.86102
613.0000	1.82175
614.0000	1.79874
615.0000	1.77222
616.0000	1.71554
617.0000	1.65334
618.0000	1.61202
619.0000	1.55975
620.0000	1.50611
621.0000	1.42526
622.0000	1.37224
623.0000	1.29826
624.0000	1.23469
625.0000	1.18449
626.0000	1.13623
627.0000	1.09441
628.0000	1.02882
629.0000	0.993308
630.0000	0.966838
631.0000	0.902523
632.0000	0.868626
633.0000	0.823038
634.0000	0.776844
635.0000	0.754168
636.0000	0.727667
637.0000	0.696659
638.0000	0.653296
639.0000	0.623545
640.0000	0.609479
641.0000	0.597135
642.0000	0.575216
643.0000	0.536077
644.0000	0.52481
645.0000	0.516944
646.0000	0.485077
647.0000	0.468838
648.0000	0.470475
649.0000	0.46717
650.0000	0.442605
651.0000	0.439772
652.0000	0.426381
653.0000	0.399685
654.0000	0.386532
655.0000	0.377149
656.0000	0.365149
657.0000	0.366965
658.0000	0.376458
659.0000	0.356036
660.0000	0.338506
661.0000	0.32307
662.0000	0.328465
663.0000	0.329795
664.0000	0.312848
665.0000	0.298796
666.0000	0.287451
667.0000	0.283747
668.0000	0.272945
669.0000	0.259548
670.0000	0.251877
671.0000	0.24563
672.0000	0.237561
673.0000	0.236308
674.0000	0.223822
675.0000	0.204989
676.0000	0.205817
677.0000	0.194367
678.0000	0.180387
679.0000	0.174038
680.0000	0.174482
681.0000	0.163969
682.0000	0.172885
683.0000	0.157958
684.0000	0.153522
685.0000	0.139007
686.0000	0.135219
687.0000	0.132948
688.0000	0.12948
689.0000	0.132198
690.0000	0.117757
691.0000	0.112509
692.0000	0.110414
693.0000	0.0998248
694.0000	0.09785
695.0000	0.096049
696.0000	0.0924389
697.0000	0.0866018
698.0000	0.0786189
699.0000	0.0738199
700.0000	0.073986

##### Extended Information
[Comments]
Sample name	4C 585 3
Comment	4C 585 3
Username
Division
Organization	HCU-BIOTECHNOLOGY

[Detailed Information]
Creation date	10/26/2024 4:57 PM

Data array type	Linear data array
Horizontal axis	Wavelength [nm]
Vertical axis	Int.
Start	595 nm
End	700 nm
Data interval	1 nm
Data points	106     

[Measurement Information]
Model name	FP-8550
Serial No.	C022962067
  Ex filter holder	None
  Em filter holder	None

Accessory	ETC-115
Accessory S/N	B009062083
  Temperature	25.01 C
  Control sensor	Holder
  Monitor sensor	Holder
  Start mode	Keep target temperature +/-0.10 C for 5 seconds

Accessory	FDP-837
Accessory S/N	A022661537
  Polarizer	Ex -----, Em -----

Measurement date	10/26/2024 4:57 PM

Mode	Emission
Ex bandwidth	5 nm
Em bandwidth	5 nm
Response	0.5 sec
Sensitivity	Medium
Measurement range	595 - 700 nm
Data interval	1 nm
Ex wavelength	585.0 nm
Scan speed	200 nm/min
No. of accumulations	1
Auto gain	Off
Shutter control	Open only for measurement
Light source	Xe lamp
Filter	Continue scan for exchanging filter
Auto Zero control	On
Blank correction	Off

