TITLE	4C 585 1
DATA TYPE	FLUORESCENCE SPECTRUM
ORIGIN	JASCO
OWNER	
DATE	24/10/26
TIME	16:55:36
SPECTROMETER/DATA SYSTEM	
LOCALE	1033
RESOLUTION	
DELTAX	1
XUNITS	NANOMETERS
YUNITS	INTENSITY
FIRSTX	  595.0000
LASTX	  700.0000
NPOINTS	     106
FIRSTY	     0.97662
MAXY	     1.87414
MINY	     0.08149
XYDATA
595.0000	0.97662
596.0000	1.06432
597.0000	1.14051
598.0000	1.24848
599.0000	1.3371
600.0000	1.39403
601.0000	1.49266
602.0000	1.57084
603.0000	1.63929
604.0000	1.69783
605.0000	1.76877
606.0000	1.83747
607.0000	1.87414
608.0000	1.86012
609.0000	1.83704
610.0000	1.8403
611.0000	1.84155
612.0000	1.85602
613.0000	1.85917
614.0000	1.79893
615.0000	1.7423
616.0000	1.69427
617.0000	1.642
618.0000	1.58064
619.0000	1.54192
620.0000	1.45333
621.0000	1.40537
622.0000	1.35433
623.0000	1.29553
624.0000	1.24692
625.0000	1.18488
626.0000	1.11675
627.0000	1.05515
628.0000	1.01115
629.0000	0.975141
630.0000	0.931484
631.0000	0.895666
632.0000	0.850222
633.0000	0.809641
634.0000	0.791109
635.0000	0.750426
636.0000	0.709975
637.0000	0.688294
638.0000	0.669524
639.0000	0.636403
640.0000	0.598445
641.0000	0.57085
642.0000	0.539657
643.0000	0.53009
644.0000	0.524572
645.0000	0.496439
646.0000	0.474696
647.0000	0.462335
648.0000	0.44449
649.0000	0.436979
650.0000	0.416219
651.0000	0.408602
652.0000	0.41741
653.0000	0.400403
654.0000	0.394041
655.0000	0.375422
656.0000	0.376011
657.0000	0.36284
658.0000	0.352845
659.0000	0.35487
660.0000	0.350984
661.0000	0.330764
662.0000	0.33038
663.0000	0.31891
664.0000	0.299338
665.0000	0.295522
666.0000	0.294753
667.0000	0.278662
668.0000	0.267904
669.0000	0.270291
670.0000	0.263003
671.0000	0.26184
672.0000	0.248957
673.0000	0.234472
674.0000	0.227574
675.0000	0.218038
676.0000	0.206091
677.0000	0.193115
678.0000	0.191949
679.0000	0.185638
680.0000	0.174901
681.0000	0.172251
682.0000	0.175964
683.0000	0.162741
684.0000	0.155282
685.0000	0.151877
686.0000	0.147419
687.0000	0.128168
688.0000	0.120158
689.0000	0.124202
690.0000	0.114369
691.0000	0.106907
692.0000	0.110265
693.0000	0.1079
694.0000	0.0946063
695.0000	0.0956487
696.0000	0.101163
697.0000	0.100436
698.0000	0.0879552
699.0000	0.0814902
700.0000	0.0847992

##### Extended Information
[Comments]
Sample name	4C 585 1
Comment	4C 585 1
Username
Division
Organization	HCU-BIOTECHNOLOGY

[Detailed Information]
Creation date	10/26/2024 4:55 PM

Data array type	Linear data array
Horizontal axis	Wavelength [nm]
Vertical axis	Int.
Start	595 nm
End	700 nm
Data interval	1 nm
Data points	106     

[Measurement Information]
Model name	FP-8550
Serial No.	C022962067
  Ex filter holder	None
  Em filter holder	None

Accessory	ETC-115
Accessory S/N	B009062083
  Temperature	25.03 C
  Control sensor	Holder
  Monitor sensor	Holder
  Start mode	Keep target temperature +/-0.10 C for 5 seconds

Accessory	FDP-837
Accessory S/N	A022661537
  Polarizer	Ex -----, Em -----

Measurement date	10/26/2024 4:55 PM

Mode	Emission
Ex bandwidth	5 nm
Em bandwidth	5 nm
Response	0.5 sec
Sensitivity	Medium
Measurement range	595 - 700 nm
Data interval	1 nm
Ex wavelength	585.0 nm
Scan speed	200 nm/min
No. of accumulations	1
Auto gain	Off
Shutter control	Open only for measurement
Light source	Xe lamp
Filter	Continue scan for exchanging filter
Auto Zero control	On
Blank correction	Off

