TITLE	6C 585 1
DATA TYPE	FLUORESCENCE SPECTRUM
ORIGIN	JASCO
OWNER	
DATE	24/10/26
TIME	17:20:07
SPECTROMETER/DATA SYSTEM	
LOCALE	1033
RESOLUTION	
DELTAX	1
XUNITS	NANOMETERS
YUNITS	INTENSITY
FIRSTX	  595.0000
LASTX	  700.0000
NPOINTS	     106
FIRSTY	     0.95074
MAXY	     1.88297
MINY	     0.08000
XYDATA
595.0000	0.95074
596.0000	1.06239
597.0000	1.14655
598.0000	1.22992
599.0000	1.34239
600.0000	1.41778
601.0000	1.50775
602.0000	1.57013
603.0000	1.62632
604.0000	1.69583
605.0000	1.78465
606.0000	1.82734
607.0000	1.8266
608.0000	1.86674
609.0000	1.86287
610.0000	1.86755
611.0000	1.88297
612.0000	1.85548
613.0000	1.8543
614.0000	1.82334
615.0000	1.77031
616.0000	1.73494
617.0000	1.65898
618.0000	1.61258
619.0000	1.54554
620.0000	1.48637
621.0000	1.45305
622.0000	1.37897
623.0000	1.32156
624.0000	1.28512
625.0000	1.24175
626.0000	1.17052
627.0000	1.09368
628.0000	1.04689
629.0000	0.984944
630.0000	0.934831
631.0000	0.88462
632.0000	0.86382
633.0000	0.833384
634.0000	0.771593
635.0000	0.741609
636.0000	0.704517
637.0000	0.68746
638.0000	0.647411
639.0000	0.642918
640.0000	0.630046
641.0000	0.57907
642.0000	0.560027
643.0000	0.542558
644.0000	0.513817
645.0000	0.511384
646.0000	0.478891
647.0000	0.460215
648.0000	0.463424
649.0000	0.442183
650.0000	0.428839
651.0000	0.441411
652.0000	0.428259
653.0000	0.413228
654.0000	0.406458
655.0000	0.399943
656.0000	0.389659
657.0000	0.364892
658.0000	0.358472
659.0000	0.343278
660.0000	0.341801
661.0000	0.332677
662.0000	0.335199
663.0000	0.318268
664.0000	0.314395
665.0000	0.297994
666.0000	0.287755
667.0000	0.289983
668.0000	0.286341
669.0000	0.262023
670.0000	0.250759
671.0000	0.250154
672.0000	0.237796
673.0000	0.230482
674.0000	0.235387
675.0000	0.212931
676.0000	0.201492
677.0000	0.2057
678.0000	0.196594
679.0000	0.183085
680.0000	0.17487
681.0000	0.174215
682.0000	0.160237
683.0000	0.153998
684.0000	0.150978
685.0000	0.139434
686.0000	0.138104
687.0000	0.129128
688.0000	0.132133
689.0000	0.134011
690.0000	0.117411
691.0000	0.114359
692.0000	0.109675
693.0000	0.1064
694.0000	0.0964597
695.0000	0.090671
696.0000	0.0854561
697.0000	0.0883335
698.0000	0.0852979
699.0000	0.0827721
700.0000	0.0799989

##### Extended Information
[Comments]
Sample name	6C 585 1
Comment	6C 585 1
Username
Division
Organization	HCU-BIOTECHNOLOGY

[Detailed Information]
Creation date	10/26/2024 5:20 PM

Data array type	Linear data array
Horizontal axis	Wavelength [nm]
Vertical axis	Int.
Start	595 nm
End	700 nm
Data interval	1 nm
Data points	106     

[Measurement Information]
Model name	FP-8550
Serial No.	C022962067
  Ex filter holder	None
  Em filter holder	None

Accessory	ETC-115
Accessory S/N	B009062083
  Temperature	24.98 C
  Control sensor	Holder
  Monitor sensor	Holder
  Start mode	Keep target temperature +/-0.10 C for 5 seconds

Accessory	FDP-837
Accessory S/N	A022661537
  Polarizer	Ex -----, Em -----

Measurement date	10/26/2024 5:20 PM

Mode	Emission
Ex bandwidth	5 nm
Em bandwidth	5 nm
Response	0.5 sec
Sensitivity	Medium
Measurement range	595 - 700 nm
Data interval	1 nm
Ex wavelength	585.0 nm
Scan speed	200 nm/min
No. of accumulations	1
Auto gain	Off
Shutter control	Open only for measurement
Light source	Xe lamp
Filter	Continue scan for exchanging filter
Auto Zero control	On
Blank correction	Off

