TITLE	6C 585 2
DATA TYPE	FLUORESCENCE SPECTRUM
ORIGIN	JASCO
OWNER	
DATE	24/10/26
TIME	17:21:40
SPECTROMETER/DATA SYSTEM	
LOCALE	1033
RESOLUTION	
DELTAX	1
XUNITS	NANOMETERS
YUNITS	INTENSITY
FIRSTX	  595.0000
LASTX	  700.0000
NPOINTS	     106
FIRSTY	     0.98951
MAXY	     1.88105
MINY	     0.07512
XYDATA
595.0000	0.989512
596.0000	1.07239
597.0000	1.16956
598.0000	1.23545
599.0000	1.32466
600.0000	1.41807
601.0000	1.50211
602.0000	1.55998
603.0000	1.61783
604.0000	1.68952
605.0000	1.76659
606.0000	1.81647
607.0000	1.85844
608.0000	1.88105
609.0000	1.87764
610.0000	1.86304
611.0000	1.86664
612.0000	1.82402
613.0000	1.8167
614.0000	1.80618
615.0000	1.76279
616.0000	1.72293
617.0000	1.66686
618.0000	1.63031
619.0000	1.59148
620.0000	1.50052
621.0000	1.41877
622.0000	1.37551
623.0000	1.29751
624.0000	1.25226
625.0000	1.21151
626.0000	1.15457
627.0000	1.0911
628.0000	1.05009
629.0000	1.00204
630.0000	0.945912
631.0000	0.882215
632.0000	0.861332
633.0000	0.845104
634.0000	0.788201
635.0000	0.749198
636.0000	0.707899
637.0000	0.690547
638.0000	0.656794
639.0000	0.634658
640.0000	0.616616
641.0000	0.6042
642.0000	0.559988
643.0000	0.549676
644.0000	0.518073
645.0000	0.501704
646.0000	0.484087
647.0000	0.474843
648.0000	0.472997
649.0000	0.457333
650.0000	0.444036
651.0000	0.444371
652.0000	0.43009
653.0000	0.418176
654.0000	0.394854
655.0000	0.382922
656.0000	0.381923
657.0000	0.383516
658.0000	0.371982
659.0000	0.356965
660.0000	0.345357
661.0000	0.332347
662.0000	0.329592
663.0000	0.319651
664.0000	0.306454
665.0000	0.294234
666.0000	0.294348
667.0000	0.293221
668.0000	0.281018
669.0000	0.27794
670.0000	0.262195
671.0000	0.23871
672.0000	0.239913
673.0000	0.239059
674.0000	0.222511
675.0000	0.19888
676.0000	0.199524
677.0000	0.195932
678.0000	0.195519
679.0000	0.192825
680.0000	0.173132
681.0000	0.164833
682.0000	0.170417
683.0000	0.172859
684.0000	0.160723
685.0000	0.143678
686.0000	0.134086
687.0000	0.141939
688.0000	0.126069
689.0000	0.113106
690.0000	0.119786
691.0000	0.116445
692.0000	0.115002
693.0000	0.106749
694.0000	0.102181
695.0000	0.0935662
696.0000	0.0858283
697.0000	0.0802472
698.0000	0.0751153
699.0000	0.0822516
700.0000	0.080818

##### Extended Information
[Comments]
Sample name	6C 585 2
Comment	6C 585 2
Username
Division
Organization	HCU-BIOTECHNOLOGY

[Detailed Information]
Creation date	10/26/2024 5:21 PM

Data array type	Linear data array
Horizontal axis	Wavelength [nm]
Vertical axis	Int.
Start	595 nm
End	700 nm
Data interval	1 nm
Data points	106     

[Measurement Information]
Model name	FP-8550
Serial No.	C022962067
  Ex filter holder	None
  Em filter holder	None

Accessory	ETC-115
Accessory S/N	B009062083
  Temperature	25.03 C
  Control sensor	Holder
  Monitor sensor	Holder
  Start mode	Keep target temperature +/-0.10 C for 5 seconds

Accessory	FDP-837
Accessory S/N	A022661537
  Polarizer	Ex -----, Em -----

Measurement date	10/26/2024 5:21 PM

Mode	Emission
Ex bandwidth	5 nm
Em bandwidth	5 nm
Response	0.5 sec
Sensitivity	Medium
Measurement range	595 - 700 nm
Data interval	1 nm
Ex wavelength	585.0 nm
Scan speed	200 nm/min
No. of accumulations	1
Auto gain	Off
Shutter control	Open only for measurement
Light source	Xe lamp
Filter	Continue scan for exchanging filter
Auto Zero control	On
Blank correction	Off

