TITLE	6C 585 3
DATA TYPE	FLUORESCENCE SPECTRUM
ORIGIN	JASCO
OWNER	
DATE	24/10/26
TIME	17:22:40
SPECTROMETER/DATA SYSTEM	
LOCALE	1033
RESOLUTION	
DELTAX	1
XUNITS	NANOMETERS
YUNITS	INTENSITY
FIRSTX	  595.0000
LASTX	  700.0000
NPOINTS	     106
FIRSTY	     0.95550
MAXY	     1.88283
MINY	     0.07581
XYDATA
595.0000	0.955504
596.0000	1.0346
597.0000	1.1137
598.0000	1.21244
599.0000	1.31313
600.0000	1.40317
601.0000	1.48375
602.0000	1.56237
603.0000	1.63765
604.0000	1.70854
605.0000	1.76761
606.0000	1.79682
607.0000	1.84156
608.0000	1.86926
609.0000	1.87572
610.0000	1.88283
611.0000	1.87913
612.0000	1.85423
613.0000	1.80783
614.0000	1.75019
615.0000	1.73082
616.0000	1.68038
617.0000	1.65308
618.0000	1.59704
619.0000	1.52903
620.0000	1.48094
621.0000	1.42114
622.0000	1.36427
623.0000	1.28533
624.0000	1.23379
625.0000	1.17203
626.0000	1.12108
627.0000	1.09668
628.0000	1.04286
629.0000	0.995986
630.0000	0.949444
631.0000	0.913687
632.0000	0.856805
633.0000	0.80799
634.0000	0.783845
635.0000	0.749129
636.0000	0.712253
637.0000	0.691919
638.0000	0.666318
639.0000	0.63411
640.0000	0.617925
641.0000	0.580578
642.0000	0.564689
643.0000	0.546799
644.0000	0.52643
645.0000	0.492884
646.0000	0.486618
647.0000	0.469164
648.0000	0.456686
649.0000	0.433251
650.0000	0.432164
651.0000	0.444298
652.0000	0.416271
653.0000	0.40166
654.0000	0.401224
655.0000	0.382538
656.0000	0.384125
657.0000	0.371256
658.0000	0.36521
659.0000	0.353314
660.0000	0.347037
661.0000	0.337799
662.0000	0.330091
663.0000	0.320808
664.0000	0.300877
665.0000	0.288252
666.0000	0.277197
667.0000	0.288395
668.0000	0.293365
669.0000	0.272236
670.0000	0.261568
671.0000	0.250776
672.0000	0.244869
673.0000	0.217513
674.0000	0.211369
675.0000	0.222625
676.0000	0.212466
677.0000	0.202567
678.0000	0.198692
679.0000	0.188841
680.0000	0.175179
681.0000	0.166221
682.0000	0.1696
683.0000	0.167114
684.0000	0.151539
685.0000	0.141637
686.0000	0.13743
687.0000	0.142092
688.0000	0.138861
689.0000	0.128143
690.0000	0.123038
691.0000	0.12173
692.0000	0.117948
693.0000	0.107769
694.0000	0.0989984
695.0000	0.0909777
696.0000	0.0968829
697.0000	0.0920122
698.0000	0.0907677
699.0000	0.0863988
700.0000	0.0758101

##### Extended Information
[Comments]
Sample name	6C 585 3
Comment	6C 585 3
Username
Division
Organization	HCU-BIOTECHNOLOGY

[Detailed Information]
Creation date	10/26/2024 5:22 PM

Data array type	Linear data array
Horizontal axis	Wavelength [nm]
Vertical axis	Int.
Start	595 nm
End	700 nm
Data interval	1 nm
Data points	106     

[Measurement Information]
Model name	FP-8550
Serial No.	C022962067
  Ex filter holder	None
  Em filter holder	None

Accessory	ETC-115
Accessory S/N	B009062083
  Temperature	25.01 C
  Control sensor	Holder
  Monitor sensor	Holder
  Start mode	Keep target temperature +/-0.10 C for 5 seconds

Accessory	FDP-837
Accessory S/N	A022661537
  Polarizer	Ex -----, Em -----

Measurement date	10/26/2024 5:22 PM

Mode	Emission
Ex bandwidth	5 nm
Em bandwidth	5 nm
Response	0.5 sec
Sensitivity	Medium
Measurement range	595 - 700 nm
Data interval	1 nm
Ex wavelength	585.0 nm
Scan speed	200 nm/min
No. of accumulations	1
Auto gain	Off
Shutter control	Open only for measurement
Light source	Xe lamp
Filter	Continue scan for exchanging filter
Auto Zero control	On
Blank correction	Off

