TITLE	5C 585 2
DATA TYPE	FLUORESCENCE SPECTRUM
ORIGIN	JASCO
OWNER	
DATE	24/10/26
TIME	17:07:08
SPECTROMETER/DATA SYSTEM	
LOCALE	1033
RESOLUTION	
DELTAX	1
XUNITS	NANOMETERS
YUNITS	INTENSITY
FIRSTX	  595.0000
LASTX	  700.0000
NPOINTS	     106
FIRSTY	     0.96711
MAXY	     1.88570
MINY	     0.07521
XYDATA
595.0000	0.967107
596.0000	1.0305
597.0000	1.13491
598.0000	1.23731
599.0000	1.30364
600.0000	1.40777
601.0000	1.49443
602.0000	1.57783
603.0000	1.6575
604.0000	1.70573
605.0000	1.75247
606.0000	1.82147
607.0000	1.8317
608.0000	1.86911
609.0000	1.8857
610.0000	1.86797
611.0000	1.87476
612.0000	1.85917
613.0000	1.83445
614.0000	1.80574
615.0000	1.76037
616.0000	1.70859
617.0000	1.67499
618.0000	1.64202
619.0000	1.54552
620.0000	1.49141
621.0000	1.4451
622.0000	1.40628
623.0000	1.36519
624.0000	1.28033
625.0000	1.22178
626.0000	1.17217
627.0000	1.09614
628.0000	1.01897
629.0000	0.99081
630.0000	0.947343
631.0000	0.918038
632.0000	0.890815
633.0000	0.824831
634.0000	0.781996
635.0000	0.772065
636.0000	0.733001
637.0000	0.696291
638.0000	0.683447
639.0000	0.620073
640.0000	0.60706
641.0000	0.593687
642.0000	0.557241
643.0000	0.539361
644.0000	0.521893
645.0000	0.504909
646.0000	0.481837
647.0000	0.467547
648.0000	0.459106
649.0000	0.464095
650.0000	0.443279
651.0000	0.416345
652.0000	0.403033
653.0000	0.392627
654.0000	0.393479
655.0000	0.380317
656.0000	0.379993
657.0000	0.375585
658.0000	0.366612
659.0000	0.35256
660.0000	0.341419
661.0000	0.334971
662.0000	0.329817
663.0000	0.322525
664.0000	0.297389
665.0000	0.288566
666.0000	0.299476
667.0000	0.292254
668.0000	0.273535
669.0000	0.262603
670.0000	0.257614
671.0000	0.249602
672.0000	0.243187
673.0000	0.227647
674.0000	0.224392
675.0000	0.217709
676.0000	0.212065
677.0000	0.201775
678.0000	0.194036
679.0000	0.172671
680.0000	0.167734
681.0000	0.165707
682.0000	0.154088
683.0000	0.152616
684.0000	0.154589
685.0000	0.144361
686.0000	0.143
687.0000	0.130813
688.0000	0.119719
689.0000	0.11225
690.0000	0.111969
691.0000	0.103493
692.0000	0.111172
693.0000	0.10351
694.0000	0.0983472
695.0000	0.0908393
696.0000	0.0932789
697.0000	0.0936778
698.0000	0.0847498
699.0000	0.0752094
700.0000	0.0771597

##### Extended Information
[Comments]
Sample name	5C 585 2
Comment	5C 585 2
Username
Division
Organization	HCU-BIOTECHNOLOGY

[Detailed Information]
Creation date	10/26/2024 5:07 PM

Data array type	Linear data array
Horizontal axis	Wavelength [nm]
Vertical axis	Int.
Start	595 nm
End	700 nm
Data interval	1 nm
Data points	106     

[Measurement Information]
Model name	FP-8550
Serial No.	C022962067
  Ex filter holder	None
  Em filter holder	None

Accessory	ETC-115
Accessory S/N	B009062083
  Temperature	25.02 C
  Control sensor	Holder
  Monitor sensor	Holder
  Start mode	Keep target temperature +/-0.10 C for 5 seconds

Accessory	FDP-837
Accessory S/N	A022661537
  Polarizer	Ex -----, Em -----

Measurement date	10/26/2024 5:07 PM

Mode	Emission
Ex bandwidth	5 nm
Em bandwidth	5 nm
Response	0.5 sec
Sensitivity	Medium
Measurement range	595 - 700 nm
Data interval	1 nm
Ex wavelength	585.0 nm
Scan speed	200 nm/min
No. of accumulations	1
Auto gain	Off
Shutter control	Open only for measurement
Light source	Xe lamp
Filter	Continue scan for exchanging filter
Auto Zero control	On
Blank correction	Off

