TITLE	5C 585 3
DATA TYPE	FLUORESCENCE SPECTRUM
ORIGIN	JASCO
OWNER	
DATE	24/10/26
TIME	17:12:26
SPECTROMETER/DATA SYSTEM	
LOCALE	1033
RESOLUTION	
DELTAX	1
XUNITS	NANOMETERS
YUNITS	INTENSITY
FIRSTX	  595.0000
LASTX	  700.0000
NPOINTS	     106
FIRSTY	     0.96281
MAXY	     1.83393
MINY	     0.07507
XYDATA
595.0000	0.962813
596.0000	1.04381
597.0000	1.12198
598.0000	1.20302
599.0000	1.28195
600.0000	1.37361
601.0000	1.4599
602.0000	1.53753
603.0000	1.59679
604.0000	1.66024
605.0000	1.72934
606.0000	1.7825
607.0000	1.82362
608.0000	1.83393
609.0000	1.81006
610.0000	1.81979
611.0000	1.80957
612.0000	1.82033
613.0000	1.80975
614.0000	1.76746
615.0000	1.7529
616.0000	1.69504
617.0000	1.62338
618.0000	1.60204
619.0000	1.51902
620.0000	1.45349
621.0000	1.39006
622.0000	1.35299
623.0000	1.29492
624.0000	1.25032
625.0000	1.17532
626.0000	1.10072
627.0000	1.06602
628.0000	0.9991
629.0000	0.951438
630.0000	0.920993
631.0000	0.893528
632.0000	0.848825
633.0000	0.818877
634.0000	0.764015
635.0000	0.733562
636.0000	0.691531
637.0000	0.665835
638.0000	0.646265
639.0000	0.622919
640.0000	0.600074
641.0000	0.577945
642.0000	0.561234
643.0000	0.546918
644.0000	0.51492
645.0000	0.472497
646.0000	0.473209
647.0000	0.476202
648.0000	0.449264
649.0000	0.433939
650.0000	0.422032
651.0000	0.404028
652.0000	0.401795
653.0000	0.389195
654.0000	0.378951
655.0000	0.367368
656.0000	0.368089
657.0000	0.367755
658.0000	0.364921
659.0000	0.340992
660.0000	0.339373
661.0000	0.322831
662.0000	0.311565
663.0000	0.294171
664.0000	0.300684
665.0000	0.293949
666.0000	0.289861
667.0000	0.290504
668.0000	0.278255
669.0000	0.274509
670.0000	0.25852
671.0000	0.246116
672.0000	0.243204
673.0000	0.244774
674.0000	0.229757
675.0000	0.212359
676.0000	0.197025
677.0000	0.203206
678.0000	0.198975
679.0000	0.189908
680.0000	0.173044
681.0000	0.168903
682.0000	0.15989
683.0000	0.146142
684.0000	0.144712
685.0000	0.128863
686.0000	0.137996
687.0000	0.13492
688.0000	0.125916
689.0000	0.119254
690.0000	0.116098
691.0000	0.115679
692.0000	0.112895
693.0000	0.0983028
694.0000	0.0994572
695.0000	0.0897782
696.0000	0.0788775
697.0000	0.0803391
698.0000	0.0775133
699.0000	0.0794711
700.0000	0.0750678

##### Extended Information
[Comments]
Sample name	5C 585 3
Comment	5C 585 3
Username
Division
Organization	HCU-BIOTECHNOLOGY

[Detailed Information]
Creation date	10/26/2024 5:12 PM

Data array type	Linear data array
Horizontal axis	Wavelength [nm]
Vertical axis	Int.
Start	595 nm
End	700 nm
Data interval	1 nm
Data points	106     

[Measurement Information]
Model name	FP-8550
Serial No.	C022962067
  Ex filter holder	None
  Em filter holder	None

Accessory	ETC-115
Accessory S/N	B009062083
  Temperature	25.00 C
  Control sensor	Holder
  Monitor sensor	Holder
  Start mode	Keep target temperature +/-0.10 C for 5 seconds

Accessory	FDP-837
Accessory S/N	A022661537
  Polarizer	Ex -----, Em -----

Measurement date	10/26/2024 5:12 PM

Mode	Emission
Ex bandwidth	5 nm
Em bandwidth	5 nm
Response	0.5 sec
Sensitivity	Medium
Measurement range	595 - 700 nm
Data interval	1 nm
Ex wavelength	585.0 nm
Scan speed	200 nm/min
No. of accumulations	1
Auto gain	Off
Shutter control	Open only for measurement
Light source	Xe lamp
Filter	Continue scan for exchanging filter
Auto Zero control	On
Blank correction	Off

