TITLE	5C 585 1
DATA TYPE	FLUORESCENCE SPECTRUM
ORIGIN	JASCO
OWNER	
DATE	24/10/26
TIME	17:06:04
SPECTROMETER/DATA SYSTEM	
LOCALE	1033
RESOLUTION	
DELTAX	1
XUNITS	NANOMETERS
YUNITS	INTENSITY
FIRSTX	  595.0000
LASTX	  700.0000
NPOINTS	     106
FIRSTY	     0.99518
MAXY	     1.92712
MINY	     0.07614
XYDATA
595.0000	0.995182
596.0000	1.09171
597.0000	1.16968
598.0000	1.26743
599.0000	1.34926
600.0000	1.42367
601.0000	1.52035
602.0000	1.61561
603.0000	1.66053
604.0000	1.71607
605.0000	1.77099
606.0000	1.80795
607.0000	1.86619
608.0000	1.9152
609.0000	1.92712
610.0000	1.91233
611.0000	1.90949
612.0000	1.87779
613.0000	1.8754
614.0000	1.85425
615.0000	1.7821
616.0000	1.72212
617.0000	1.6696
618.0000	1.62493
619.0000	1.5577
620.0000	1.52309
621.0000	1.48156
622.0000	1.41616
623.0000	1.3547
624.0000	1.30193
625.0000	1.23258
626.0000	1.16765
627.0000	1.11017
628.0000	1.05232
629.0000	1.00072
630.0000	0.961992
631.0000	0.915003
632.0000	0.878473
633.0000	0.839423
634.0000	0.806872
635.0000	0.772632
636.0000	0.743273
637.0000	0.725283
638.0000	0.683162
639.0000	0.646968
640.0000	0.60901
641.0000	0.589746
642.0000	0.569601
643.0000	0.556638
644.0000	0.523927
645.0000	0.507972
646.0000	0.497528
647.0000	0.484867
648.0000	0.457196
649.0000	0.440323
650.0000	0.437718
651.0000	0.429094
652.0000	0.410479
653.0000	0.405345
654.0000	0.390918
655.0000	0.376532
656.0000	0.383813
657.0000	0.371346
658.0000	0.351677
659.0000	0.358854
660.0000	0.344086
661.0000	0.345882
662.0000	0.336497
663.0000	0.314751
664.0000	0.303514
665.0000	0.306734
666.0000	0.293488
667.0000	0.290718
668.0000	0.268615
669.0000	0.26376
670.0000	0.259981
671.0000	0.2532
672.0000	0.244309
673.0000	0.233282
674.0000	0.228612
675.0000	0.218736
676.0000	0.199977
677.0000	0.208399
678.0000	0.205128
679.0000	0.189695
680.0000	0.17654
681.0000	0.169212
682.0000	0.157175
683.0000	0.155968
684.0000	0.157741
685.0000	0.158872
686.0000	0.148335
687.0000	0.141226
688.0000	0.133999
689.0000	0.121763
690.0000	0.118571
691.0000	0.118192
692.0000	0.113389
693.0000	0.102578
694.0000	0.0939049
695.0000	0.0938394
696.0000	0.0927714
697.0000	0.0825185
698.0000	0.0761378
699.0000	0.0807101
700.0000	0.0803131

##### Extended Information
[Comments]
Sample name	5C 585 1
Comment	5C 585 1
Username
Division
Organization	HCU-BIOTECHNOLOGY

[Detailed Information]
Creation date	10/26/2024 5:06 PM

Data array type	Linear data array
Horizontal axis	Wavelength [nm]
Vertical axis	Int.
Start	595 nm
End	700 nm
Data interval	1 nm
Data points	106     

[Measurement Information]
Model name	FP-8550
Serial No.	C022962067
  Ex filter holder	None
  Em filter holder	None

Accessory	ETC-115
Accessory S/N	B009062083
  Temperature	24.99 C
  Control sensor	Holder
  Monitor sensor	Holder
  Start mode	Keep target temperature +/-0.10 C for 5 seconds

Accessory	FDP-837
Accessory S/N	A022661537
  Polarizer	Ex -----, Em -----

Measurement date	10/26/2024 5:06 PM

Mode	Emission
Ex bandwidth	5 nm
Em bandwidth	5 nm
Response	0.5 sec
Sensitivity	Medium
Measurement range	595 - 700 nm
Data interval	1 nm
Ex wavelength	585.0 nm
Scan speed	200 nm/min
No. of accumulations	1
Auto gain	Off
Shutter control	Open only for measurement
Light source	Xe lamp
Filter	Continue scan for exchanging filter
Auto Zero control	On
Blank correction	Off

