TITLE	1 C 585  3
DATA TYPE	FLUORESCENCE SPECTRUM
ORIGIN	JASCO
OWNER	
DATE	24/10/26
TIME	16:26:19
SPECTROMETER/DATA SYSTEM	
LOCALE	1033
RESOLUTION	
DELTAX	1
XUNITS	NANOMETERS
YUNITS	INTENSITY
FIRSTX	  595.0000
LASTX	  700.0000
NPOINTS	     106
FIRSTY	     0.95844
MAXY	     1.83094
MINY	     0.07137
XYDATA
595.0000	0.95844
596.0000	1.0217
597.0000	1.10993
598.0000	1.18476
599.0000	1.28643
600.0000	1.39571
601.0000	1.49275
602.0000	1.54616
603.0000	1.58712
604.0000	1.66806
605.0000	1.69869
606.0000	1.76447
607.0000	1.78207
608.0000	1.79096
609.0000	1.83094
610.0000	1.82802
611.0000	1.80585
612.0000	1.79842
613.0000	1.80173
614.0000	1.76039
615.0000	1.71585
616.0000	1.65862
617.0000	1.60712
618.0000	1.56037
619.0000	1.49663
620.0000	1.43202
621.0000	1.37873
622.0000	1.31774
623.0000	1.27761
624.0000	1.20745
625.0000	1.15431
626.0000	1.10569
627.0000	1.0504
628.0000	1.01559
629.0000	0.957829
630.0000	0.927583
631.0000	0.878015
632.0000	0.83213
633.0000	0.81028
634.0000	0.768234
635.0000	0.71306
636.0000	0.680098
637.0000	0.651668
638.0000	0.63288
639.0000	0.614803
640.0000	0.585903
641.0000	0.570483
642.0000	0.54798
643.0000	0.511748
644.0000	0.496902
645.0000	0.488501
646.0000	0.459187
647.0000	0.455135
648.0000	0.444881
649.0000	0.42357
650.0000	0.420733
651.0000	0.409989
652.0000	0.387012
653.0000	0.374724
654.0000	0.384222
655.0000	0.37802
656.0000	0.350689
657.0000	0.33978
658.0000	0.333436
659.0000	0.325032
660.0000	0.334699
661.0000	0.330451
662.0000	0.316375
663.0000	0.297044
664.0000	0.293312
665.0000	0.281943
666.0000	0.288581
667.0000	0.287389
668.0000	0.255725
669.0000	0.254853
670.0000	0.255843
671.0000	0.241496
672.0000	0.230522
673.0000	0.216318
674.0000	0.212291
675.0000	0.210561
676.0000	0.189942
677.0000	0.187735
678.0000	0.185832
679.0000	0.17776
680.0000	0.182946
681.0000	0.170473
682.0000	0.165396
683.0000	0.156083
684.0000	0.139732
685.0000	0.128711
686.0000	0.13154
687.0000	0.123249
688.0000	0.125003
689.0000	0.116795
690.0000	0.113158
691.0000	0.111786
692.0000	0.107346
693.0000	0.0996225
694.0000	0.0939438
695.0000	0.094019
696.0000	0.0882946
697.0000	0.0840888
698.0000	0.083462
699.0000	0.080329
700.0000	0.0713742

##### Extended Information
[Comments]
Sample name	1 C 585  3
Comment	1 C 585  3
Username
Division
Organization	HCU-BIOTECHNOLOGY

[Detailed Information]
Creation date	10/26/2024 4:26 PM

Data array type	Linear data array
Horizontal axis	Wavelength [nm]
Vertical axis	Int.
Start	595 nm
End	700 nm
Data interval	1 nm
Data points	106     

[Measurement Information]
Model name	FP-8550
Serial No.	C022962067
  Ex filter holder	None
  Em filter holder	None

Accessory	ETC-115
Accessory S/N	B009062083
  Temperature	25.02 C
  Control sensor	Holder
  Monitor sensor	Holder
  Start mode	Keep target temperature +/-0.10 C for 5 seconds

Accessory	FDP-837
Accessory S/N	A022661537
  Polarizer	Ex -----, Em -----

Measurement date	10/26/2024 4:26 PM

Mode	Emission
Ex bandwidth	5 nm
Em bandwidth	5 nm
Response	0.5 sec
Sensitivity	Medium
Measurement range	595 - 700 nm
Data interval	1 nm
Ex wavelength	585.0 nm
Scan speed	200 nm/min
No. of accumulations	1
Auto gain	Off
Shutter control	Open only for measurement
Light source	Xe lamp
Filter	Continue scan for exchanging filter
Auto Zero control	On
Blank correction	Off

