TITLE	1 C 585  1
DATA TYPE	FLUORESCENCE SPECTRUM
ORIGIN	JASCO
OWNER	
DATE	24/10/26
TIME	16:24:22
SPECTROMETER/DATA SYSTEM	
LOCALE	1033
RESOLUTION	
DELTAX	1
XUNITS	NANOMETERS
YUNITS	INTENSITY
FIRSTX	  595.0000
LASTX	  700.0000
NPOINTS	     106
FIRSTY	     0.99424
MAXY	     1.94042
MINY	     0.07662
XYDATA
595.0000	0.994237
596.0000	1.08398
597.0000	1.16366
598.0000	1.27437
599.0000	1.371
600.0000	1.4723
601.0000	1.55868
602.0000	1.61136
603.0000	1.68272
604.0000	1.74137
605.0000	1.79344
606.0000	1.85745
607.0000	1.90377
608.0000	1.92394
609.0000	1.94042
610.0000	1.9194
611.0000	1.91896
612.0000	1.88135
613.0000	1.87272
614.0000	1.84051
615.0000	1.77092
616.0000	1.72955
617.0000	1.6996
618.0000	1.62604
619.0000	1.56622
620.0000	1.49261
621.0000	1.43697
622.0000	1.36988
623.0000	1.34966
624.0000	1.31192
625.0000	1.24912
626.0000	1.17319
627.0000	1.10869
628.0000	1.06229
629.0000	1.0337
630.0000	0.964685
631.0000	0.878438
632.0000	0.835315
633.0000	0.810751
634.0000	0.788467
635.0000	0.74207
636.0000	0.714278
637.0000	0.67134
638.0000	0.645456
639.0000	0.638503
640.0000	0.618208
641.0000	0.586766
642.0000	0.56448
643.0000	0.532482
644.0000	0.521785
645.0000	0.511917
646.0000	0.492211
647.0000	0.469151
648.0000	0.445199
649.0000	0.435579
650.0000	0.429353
651.0000	0.416514
652.0000	0.402195
653.0000	0.404102
654.0000	0.388976
655.0000	0.38957
656.0000	0.38614
657.0000	0.375644
658.0000	0.3618
659.0000	0.352429
660.0000	0.34376
661.0000	0.333253
662.0000	0.314339
663.0000	0.311441
664.0000	0.29807
665.0000	0.297652
666.0000	0.289101
667.0000	0.270211
668.0000	0.262524
669.0000	0.25711
670.0000	0.254971
671.0000	0.238175
672.0000	0.227128
673.0000	0.221671
674.0000	0.222536
675.0000	0.221237
676.0000	0.205344
677.0000	0.194361
678.0000	0.186088
679.0000	0.178192
680.0000	0.169468
681.0000	0.165319
682.0000	0.163561
683.0000	0.153227
684.0000	0.147888
685.0000	0.147028
686.0000	0.132684
687.0000	0.133234
688.0000	0.128675
689.0000	0.115969
690.0000	0.114293
691.0000	0.111306
692.0000	0.103193
693.0000	0.100967
694.0000	0.10178
695.0000	0.0978249
696.0000	0.0912549
697.0000	0.0841881
698.0000	0.0766218
699.0000	0.0821135
700.0000	0.0813198

##### Extended Information
[Comments]
Sample name	1 C 585  1
Comment	1 C 585  1
Username
Division
Organization	HCU-BIOTECHNOLOGY

[Detailed Information]
Creation date	10/26/2024 4:24 PM

Data array type	Linear data array
Horizontal axis	Wavelength [nm]
Vertical axis	Int.
Start	595 nm
End	700 nm
Data interval	1 nm
Data points	106     

[Measurement Information]
Model name	FP-8550
Serial No.	C022962067
  Ex filter holder	None
  Em filter holder	None

Accessory	ETC-115
Accessory S/N	B009062083
  Temperature	25.03 C
  Control sensor	Holder
  Monitor sensor	Holder
  Start mode	Keep target temperature +/-0.10 C for 5 seconds

Accessory	FDP-837
Accessory S/N	A022661537
  Polarizer	Ex -----, Em -----

Measurement date	10/26/2024 4:24 PM

Mode	Emission
Ex bandwidth	5 nm
Em bandwidth	5 nm
Response	0.5 sec
Sensitivity	Medium
Measurement range	595 - 700 nm
Data interval	1 nm
Ex wavelength	585.0 nm
Scan speed	200 nm/min
No. of accumulations	1
Auto gain	Off
Shutter control	Open only for measurement
Light source	Xe lamp
Filter	Continue scan for exchanging filter
Auto Zero control	On
Blank correction	Off

