TITLE	1 C 585  2
DATA TYPE	FLUORESCENCE SPECTRUM
ORIGIN	JASCO
OWNER	
DATE	24/10/26
TIME	16:25:21
SPECTROMETER/DATA SYSTEM	
LOCALE	1033
RESOLUTION	
DELTAX	1
XUNITS	NANOMETERS
YUNITS	INTENSITY
FIRSTX	  595.0000
LASTX	  700.0000
NPOINTS	     106
FIRSTY	     0.95324
MAXY	     1.84553
MINY	     0.07745
XYDATA
595.0000	0.953245
596.0000	1.02421
597.0000	1.10333
598.0000	1.21672
599.0000	1.31746
600.0000	1.38105
601.0000	1.45277
602.0000	1.54463
603.0000	1.6214
604.0000	1.67188
605.0000	1.71855
606.0000	1.77893
607.0000	1.84553
608.0000	1.80989
609.0000	1.81432
610.0000	1.84534
611.0000	1.83721
612.0000	1.83817
613.0000	1.80835
614.0000	1.75942
615.0000	1.71679
616.0000	1.6772
617.0000	1.62512
618.0000	1.58191
619.0000	1.53188
620.0000	1.45521
621.0000	1.38906
622.0000	1.32922
623.0000	1.28356
624.0000	1.21709
625.0000	1.17297
626.0000	1.12682
627.0000	1.0582
628.0000	1.01334
629.0000	0.960137
630.0000	0.905523
631.0000	0.889489
632.0000	0.847486
633.0000	0.807455
634.0000	0.759201
635.0000	0.720126
636.0000	0.69763
637.0000	0.659492
638.0000	0.61975
639.0000	0.606329
640.0000	0.579116
641.0000	0.546757
642.0000	0.535867
643.0000	0.51474
644.0000	0.506172
645.0000	0.490748
646.0000	0.480708
647.0000	0.464243
648.0000	0.443993
649.0000	0.423956
650.0000	0.418578
651.0000	0.397384
652.0000	0.381958
653.0000	0.382287
654.0000	0.368277
655.0000	0.372424
656.0000	0.357294
657.0000	0.352104
658.0000	0.359626
659.0000	0.351796
660.0000	0.333693
661.0000	0.316093
662.0000	0.302058
663.0000	0.30573
664.0000	0.291039
665.0000	0.290005
666.0000	0.284999
667.0000	0.277929
668.0000	0.259407
669.0000	0.242029
670.0000	0.234782
671.0000	0.239202
672.0000	0.235825
673.0000	0.226755
674.0000	0.214146
675.0000	0.202167
676.0000	0.199584
677.0000	0.191246
678.0000	0.169886
679.0000	0.171655
680.0000	0.162342
681.0000	0.159584
682.0000	0.158009
683.0000	0.137926
684.0000	0.13587
685.0000	0.125954
686.0000	0.129322
687.0000	0.124828
688.0000	0.11827
689.0000	0.114868
690.0000	0.116889
691.0000	0.111196
692.0000	0.107779
693.0000	0.107714
694.0000	0.0917021
695.0000	0.0884092
696.0000	0.0859335
697.0000	0.0809759
698.0000	0.0875441
699.0000	0.0841799
700.0000	0.0774534

##### Extended Information
[Comments]
Sample name	1 C 585  2
Comment	1 C 585  2
Username
Division
Organization	HCU-BIOTECHNOLOGY

[Detailed Information]
Creation date	10/26/2024 4:25 PM

Data array type	Linear data array
Horizontal axis	Wavelength [nm]
Vertical axis	Int.
Start	595 nm
End	700 nm
Data interval	1 nm
Data points	106     

[Measurement Information]
Model name	FP-8550
Serial No.	C022962067
  Ex filter holder	None
  Em filter holder	None

Accessory	ETC-115
Accessory S/N	B009062083
  Temperature	24.99 C
  Control sensor	Holder
  Monitor sensor	Holder
  Start mode	Keep target temperature +/-0.10 C for 5 seconds

Accessory	FDP-837
Accessory S/N	A022661537
  Polarizer	Ex -----, Em -----

Measurement date	10/26/2024 4:25 PM

Mode	Emission
Ex bandwidth	5 nm
Em bandwidth	5 nm
Response	0.5 sec
Sensitivity	Medium
Measurement range	595 - 700 nm
Data interval	1 nm
Ex wavelength	585.0 nm
Scan speed	200 nm/min
No. of accumulations	1
Auto gain	Off
Shutter control	Open only for measurement
Light source	Xe lamp
Filter	Continue scan for exchanging filter
Auto Zero control	On
Blank correction	Off

